0.0 367.0 70.0 367.0 70.0 406.0 0.0 406.0
0.352020263671875 366.00909423828125 71.11964416503906 366.00909423828125 71.11964416503906 404.3431816101074 0.352020263671875 404.3431816101074
2.2482972145080566 365.37994384765625 74.52432107925415 365.37994384765625 74.52432107925415 403.85183334350586 2.2482972145080566 403.85183334350586
2.8549270629882812 365.082275390625 77.83130645751953 365.082275390625 77.83130645751953 404.05820083618164 2.8549270629882812 404.05820083618164
3.450061798095703 364.15289306640625 81.35921859741211 364.15289306640625 81.35921859741211 402.6486587524414 3.450061798095703 402.6486587524414
4.7559709548950195 363.1165466308594 83.97165393829346 363.1165466308594 83.97165393829346 402.1852836608887 4.7559709548950195 402.1852836608887
7.400125026702881 361.3909912109375 86.4036192893982 361.3909912109375 86.4036192893982 401.831298828125 7.400125026702881 401.831298828125
10.192065238952637 360.4495544433594 89.13263988494873 360.4495544433594 89.13263988494873 401.08481216430664 10.192065238952637 401.08481216430664
11.295746803283691 359.6488037109375 91.90113925933838 359.6488037109375 91.90113925933838 400.6490135192871 11.295746803283691 400.6490135192871
15.015835762023926 356.74041748046875 96.8690538406372 356.74041748046875 96.8690538406372 402.3443412780762 15.015835762023926 402.3443412780762
13.20678997039795 359.54638671875 97.66697978973389 359.54638671875 97.66697978973389 399.2538757324219 13.20678997039795 399.2538757324219
18.606304168701172 358.2828674316406 103.00373458862305 358.2828674316406 103.00373458862305 400.0078430175781 18.606304168701172 400.0078430175781
21.7811279296875 358.32373046875 106.02622985839844 358.32373046875 106.02622985839844 400.1181449890137 21.7811279296875 400.1181449890137
26.9168758392334 359.0166320800781 108.66786766052246 359.0166320800781 108.66786766052246 400.45396423339844 26.9168758392334 400.45396423339844
30.728374481201172 359.4156799316406 110.41222763061523 359.4156799316406 110.41222763061523 398.8033218383789 30.728374481201172 398.8033218383789
34.33002853393555 360.3115234375 111.16624069213867 360.3115234375 111.16624069213867 399.5953598022461 34.33002853393555 399.5953598022461
36.92102813720703 357.3291015625 117.50126647949219 357.3291015625 117.50126647949219 402.22380447387695 36.92102813720703 402.22380447387695
41.15184783935547 354.58538818359375 112.07410430908203 354.58538818359375 112.07410430908203 396.0412406921387 41.15184783935547 396.0412406921387
42.711387634277344 355.20111083984375 114.92801666259766 355.20111083984375 114.92801666259766 395.37227630615234 42.711387634277344 395.37227630615234
41.8363151550293 349.2200622558594 123.74935531616211 349.2200622558594 123.74935531616211 394.8573188781738 41.8363151550293 394.8573188781738
47.14839553833008 349.2836608886719 118.14569473266602 349.2836608886719 118.14569473266602 392.89298248291016 47.14839553833008 392.89298248291016
49.15794372558594 348.5350036621094 120.49053955078125 348.5350036621094 120.49053955078125 391.46825408935547 49.15794372558594 391.46825408935547
51.55720138549805 349.0613708496094 123.22942733764648 349.0613708496094 123.22942733764648 390.00639724731445 51.55720138549805 390.00639724731445
54.20768356323242 346.6285705566406 126.61165237426758 346.6285705566406 126.61165237426758 388.1547660827637 54.20768356323242 388.1547660827637
56.86688232421875 348.8155212402344 128.634521484375 348.8155212402344 128.634521484375 389.0455551147461 56.86688232421875 389.0455551147461
61.32756423950195 342.4408264160156 141.66262435913086 342.4408264160156 141.66262435913086 387.1989212036133 61.32756423950195 387.1989212036133
63.01495361328125 348.3153076171875 135.2733154296875 348.3153076171875 135.2733154296875 389.5327339172363 63.01495361328125 389.5327339172363
73.01405334472656 346.5610656738281 144.79790496826172 346.5610656738281 144.79790496826172 386.92833709716797 73.01405334472656 386.92833709716797
73.44929504394531 346.3853454589844 145.30756378173828 346.3853454589844 145.30756378173828 387.36208724975586 73.44929504394531 387.36208724975586
75.56816101074219 347.47662353515625 146.5073471069336 347.47662353515625 146.5073471069336 387.8421936035156 75.56816101074219 387.8421936035156
72.35905456542969 349.1553649902344 146.46454620361328 349.1553649902344 146.46454620361328 389.7765083312988 72.35905456542969 389.7765083312988
78.66194915771484 348.7365417480469 150.1916961669922 348.7365417480469 150.1916961669922 388.2882881164551 78.66194915771484 388.2882881164551
81.92845153808594 349.23297119140625 154.44258880615234 349.23297119140625 154.44258880615234 387.9876937866211 81.92845153808594 387.9876937866211
83.92252349853516 349.9350280761719 157.25691986083984 349.9350280761719 157.25691986083984 388.5625343322754 83.92252349853516 388.5625343322754
86.63074493408203 347.5714416503906 159.28084564208984 347.5714416503906 159.28084564208984 387.63727951049805 86.63074493408203 387.63727951049805
86.70662689208984 346.7113342285156 159.54173278808594 346.7113342285156 159.54173278808594 386.9018745422363 86.70662689208984 386.9018745422363
91.97441101074219 345.474853515625 162.48654174804688 345.474853515625 162.48654174804688 384.3959770202637 91.97441101074219 384.3959770202637
88.63139343261719 343.68109130859375 160.44876861572266 343.68109130859375 160.44876861572266 384.4288520812988 88.63139343261719 384.4288520812988
90.13615417480469 342.5984802246094 163.6167221069336 342.5984802246094 163.6167221069336 384.4306945800781 90.13615417480469 384.4306945800781
86.8488998413086 340.43048095703125 167.82290649414062 340.43048095703125 167.82290649414062 385.54456329345703 86.8488998413086 385.54456329345703
84.76801300048828 343.2962951660156 166.69994354248047 343.2962951660156 166.69994354248047 388.9440803527832 84.76801300048828 388.9440803527832
82.6324462890625 328.75555419921875 164.80805206298828 328.75555419921875 164.80805206298828 374.53910064697266 82.6324462890625 374.53910064697266
81.29376983642578 333.6058044433594 161.80529022216797 333.6058044433594 161.80529022216797 378.46221923828125 81.29376983642578 378.46221923828125
78.55484771728516 296.64361572265625 159.10100555419922 296.64361572265625 159.10100555419922 341.5193290710449 78.55484771728516 341.5193290710449
109.7623291015625 312.4366149902344 191.56465911865234 312.4366149902344 191.56465911865234 358.01219940185547 109.7623291015625 358.01219940185547
125.98301696777344 320.84967041015625 207.9338150024414 320.84967041015625 207.9338150024414 366.50797271728516 125.98301696777344 366.50797271728516
90.4817123413086 331.09185791015625 172.44768524169922 331.09185791015625 172.44768524169922 376.7586135864258 90.4817123413086 376.7586135864258
76.19425964355469 339.2254943847656 159.16366577148438 339.2254943847656 159.16366577148438 385.4513130187988 76.19425964355469 385.4513130187988
66.59428405761719 343.53125 147.77723693847656 343.53125 147.77723693847656 388.76175689697266 66.59428405761719 388.76175689697266
97.22757720947266 341.1379089355469 173.0036392211914 341.1379089355469 173.0036392211914 385.4224510192871 97.22757720947266 385.4224510192871
103.13260650634766 341.0302429199219 173.87743377685547 341.0302429199219 173.87743377685547 385.2187080383301 103.13260650634766 385.2187080383301
105.131103515625 340.52447509765625 178.39191436767578 340.52447509765625 178.39191436767578 384.5060501098633 105.131103515625 384.5060501098633
107.89369201660156 341.1751708984375 185.3145294189453 341.1751708984375 185.3145294189453 384.3834419250488 107.89369201660156 384.3834419250488
111.7640151977539 343.15692138671875 189.71685028076172 343.15692138671875 189.71685028076172 384.88697052001953 111.7640151977539 384.88697052001953
114.19793701171875 342.6154479980469 193.2280731201172 342.6154479980469 193.2280731201172 385.19200897216797 114.19793701171875 385.19200897216797
119.53108215332031 341.91046142578125 197.31683349609375 341.91046142578125 197.31683349609375 384.0880355834961 119.53108215332031 384.0880355834961
121.6589584350586 341.22137451171875 200.95057678222656 341.22137451171875 200.95057678222656 384.03894805908203 121.6589584350586 384.03894805908203
127.64668273925781 340.73004150390625 206.39163970947266 340.73004150390625 206.39163970947266 383.9027328491211 127.64668273925781 383.9027328491211
126.7674560546875 341.78350830078125 207.8098373413086 341.78350830078125 207.8098373413086 385.6539497375488 126.7674560546875 385.6539497375488
124.83680725097656 341.91168212890625 210.15184020996094 341.91168212890625 210.15184020996094 387.36964416503906 124.83680725097656 387.36964416503906
129.1280975341797 339.704833984375 212.94963836669922 339.704833984375 212.94963836669922 386.5652503967285 129.1280975341797 386.5652503967285
133.98623657226562 339.6893615722656 217.20912170410156 339.6893615722656 217.20912170410156 386.22191619873047 133.98623657226562 386.22191619873047
134.86390686035156 337.99859619140625 224.67877197265625 337.99859619140625 224.67877197265625 387.1455841064453 134.86390686035156 387.1455841064453
141.27645874023438 336.2302551269531 229.70457458496094 336.2302551269531 229.70457458496094 385.3359794616699 141.27645874023438 385.3359794616699
141.1625518798828 336.9104919433594 232.90972900390625 336.9104919433594 232.90972900390625 385.8488998413086 141.1625518798828 385.8488998413086
145.63795471191406 334.1631774902344 235.07839965820312 334.1631774902344 235.07839965820312 383.6861877441406 145.63795471191406 383.6861877441406
146.0612030029297 335.19427490234375 236.07566833496094 335.19427490234375 236.07566833496094 384.09180450439453 146.0612030029297 384.09180450439453
151.91726684570312 331.9822998046875 238.64540100097656 331.9822998046875 238.64540100097656 381.4048957824707 151.91726684570312 381.4048957824707
148.81309509277344 332.1791076660156 240.14356994628906 332.1791076660156 240.14356994628906 382.0584182739258 148.81309509277344 382.0584182739258
151.51031494140625 330.95257568359375 243.2441635131836 330.95257568359375 243.2441635131836 380.0339775085449 151.51031494140625 380.0339775085449
155.96438598632812 328.77618408203125 246.7347869873047 328.77618408203125 246.7347869873047 378.30351638793945 155.96438598632812 378.30351638793945
158.93399047851562 328.73638916015625 250.06073760986328 328.73638916015625 250.06073760986328 376.91759490966797 158.93399047851562 376.91759490966797
164.13539123535156 328.32183837890625 254.77323150634766 328.32183837890625 254.77323150634766 376.0189895629883 164.13539123535156 376.0189895629883
169.12864685058594 327.00384521484375 259.6054229736328 327.00384521484375 259.6054229736328 375.2441215515137 169.12864685058594 375.2441215515137
169.81582641601562 325.4665222167969 262.10900115966797 325.4665222167969 262.10900115966797 374.46489334106445 169.81582641601562 374.46489334106445
174.4503173828125 324.03289794921875 264.2256393432617 324.03289794921875 264.2256393432617 372.88794326782227 174.4503173828125 372.88794326782227
171.31082153320312 322.25604248046875 266.3534622192383 322.25604248046875 266.3534622192383 373.07976150512695 171.31082153320312 373.07976150512695
174.53225708007812 321.4672546386719 270.3709411621094 321.4672546386719 270.3709411621094 372.8822822570801 174.53225708007812 372.8822822570801
182.7934112548828 320.03570556640625 274.51605224609375 320.03570556640625 274.51605224609375 371.6827087402344 182.7934112548828 371.6827087402344
182.7511749267578 319.742919921875 274.24591064453125 319.742919921875 274.24591064453125 370.4277572631836 182.7511749267578 370.4277572631836
182.43780517578125 317.57177734375 276.5588836669922 317.57177734375 276.5588836669922 368.7980041503906 182.43780517578125 368.7980041503906
183.97731018066406 317.2510986328125 280.18812561035156 317.2510986328125 280.18812561035156 368.6353454589844 183.97731018066406 368.6353454589844
188.94773864746094 314.5581970214844 285.6603698730469 314.5581970214844 285.6603698730469 367.6054000854492 188.94773864746094 367.6054000854492
195.2215576171875 311.13555908203125 291.2237014770508 311.13555908203125 291.2237014770508 363.3744888305664 195.2215576171875 363.3744888305664
200.4923553466797 311.21588134765625 295.6189880371094 311.21588134765625 295.6189880371094 363.28900146484375 200.4923553466797 363.28900146484375
208.1841278076172 310.3191223144531 300.2761688232422 310.3191223144531 300.2761688232422 362.2659797668457 208.1841278076172 362.2659797668457
214.0235137939453 308.892822265625 304.477294921875 308.892822265625 304.477294921875 360.39400482177734 214.0235137939453 360.39400482177734
217.582763671875 307.61834716796875 310.54164123535156 307.61834716796875 310.54164123535156 360.1508903503418 217.582763671875 360.1508903503418
217.0690460205078 308.0715637207031 312.33370208740234 308.0715637207031 312.33370208740234 360.5459098815918 217.0690460205078 360.5459098815918
224.16775512695312 306.330810546875 318.3126754760742 306.330810546875 318.3126754760742 358.6203422546387 224.16775512695312 358.6203422546387
222.1173095703125 305.340576171875 320.35101318359375 305.340576171875 320.35101318359375 358.76996994018555 222.1173095703125 358.76996994018555
226.02395629882812 305.9712829589844 323.45618438720703 305.9712829589844 323.45618438720703 358.5568428039551 226.02395629882812 358.5568428039551
229.2127227783203 305.23876953125 325.38624572753906 305.23876953125 325.38624572753906 357.70685958862305 229.2127227783203 357.70685958862305
232.0323028564453 306.4299621582031 327.8377151489258 306.4299621582031 327.8377151489258 358.56254959106445 232.0323028564453 358.56254959106445
233.54214477539062 304.22314453125 331.09275817871094 304.22314453125 331.09275817871094 357.8005561828613 233.54214477539062 357.8005561828613
242.0453338623047 302.7071533203125 336.1429443359375 302.7071533203125 336.1429443359375 355.03707122802734 242.0453338623047 355.03707122802734
244.23983764648438 300.9156188964844 339.5710983276367 300.9156188964844 339.5710983276367 353.48907470703125 244.23983764648438 353.48907470703125
252.032958984375 299.29840087890625 347.0913543701172 299.29840087890625 347.0913543701172 351.27436447143555 252.032958984375 351.27436447143555
254.1854705810547 297.5765075683594 351.5115966796875 297.5765075683594 351.5115966796875 350.5459403991699 254.1854705810547 350.5459403991699
260.81329345703125 298.7333984375 355.91759490966797 298.7333984375 355.91759490966797 350.9400405883789 260.81329345703125 350.9400405883789
265.20062255859375 300.5462646484375 359.16090393066406 300.5462646484375 359.16090393066406 351.2578125 265.20062255859375 351.2578125
264.33758544921875 301.7705078125 360.40518951416016 301.7705078125 360.40518951416016 351.85195541381836 264.33758544921875 351.85195541381836
268.79998779296875 302.27130126953125 363.3295593261719 302.27130126953125 363.3295593261719 354.79793548583984 268.79998779296875 354.79793548583984
269.4178466796875 301.9515380859375 365.1394348144531 301.9515380859375 365.1394348144531 354.6900215148926 269.4178466796875 354.6900215148926
272.11114501953125 301.6122131347656 367.7421112060547 301.6122131347656 367.7421112060547 354.92488861083984 272.11114501953125 354.92488861083984
273.50799560546875 297.97003173828125 369.03235626220703 297.97003173828125 369.03235626220703 351.60350799560547 273.50799560546875 351.60350799560547
275.26458740234375 297.6817932128906 369.82984924316406 297.6817932128906 369.82984924316406 351.1439018249512 275.26458740234375 351.1439018249512
273.81146240234375 294.08660888671875 370.85267639160156 294.08660888671875 370.85267639160156 348.4687271118164 273.81146240234375 348.4687271118164
277.58502197265625 296.25189208984375 371.2009735107422 296.25189208984375 371.2009735107422 351.2186088562012 277.58502197265625 351.2186088562012
275.4674377441406 292.98406982421875 372.58599853515625 292.98406982421875 372.58599853515625 347.9780387878418 275.4674377441406 347.9780387878418
276.4217224121094 294.50299072265625 373.0979537963867 294.50299072265625 373.0979537963867 349.18306732177734 276.4217224121094 349.18306732177734
277.47100830078125 296.228759765625 373.35652923583984 296.228759765625 373.35652923583984 350.03839111328125 277.47100830078125 350.03839111328125
276.92462158203125 296.58673095703125 374.25856018066406 296.58673095703125 374.25856018066406 350.31513595581055 276.92462158203125 350.31513595581055
275.18524169921875 295.14385986328125 374.61571502685547 295.14385986328125 374.61571502685547 350.4548110961914 275.18524169921875 350.4548110961914
275.05120849609375 293.9527587890625 374.66893005371094 293.9527587890625 374.66893005371094 349.1965141296387 275.05120849609375 349.1965141296387
272.20062255859375 293.41253662109375 373.73448181152344 293.41253662109375 373.73448181152344 351.69063568115234 272.20062255859375 351.69063568115234
271.1371154785156 293.62322998046875 374.07750701904297 293.62322998046875 374.07750701904297 351.53277587890625 271.1371154785156 351.53277587890625
270.94677734375 288.085693359375 377.19677734375 288.085693359375 377.19677734375 347.2131767272949 270.94677734375 347.2131767272949
274.72137451171875 289.28076171875 379.53731536865234 289.28076171875 379.53731536865234 348.08698654174805 274.72137451171875 348.08698654174805
274.5730285644531 289.706298828125 380.0856018066406 289.706298828125 380.0856018066406 348.6007881164551 274.5730285644531 348.6007881164551
274.9035339355469 289.78076171875 382.3657684326172 289.78076171875 382.3657684326172 348.9730033874512 274.9035339355469 348.9730033874512
276.65673828125 290.5851745605469 383.38895416259766 290.5851745605469 383.38895416259766 349.1097831726074 276.65673828125 349.1097831726074
278.8388977050781 290.3611145019531 385.86304473876953 290.3611145019531 385.86304473876953 349.1041259765625 278.8388977050781 349.1041259765625
282.24798583984375 291.6629333496094 386.77923583984375 291.6629333496094 386.77923583984375 349.7707328796387 282.24798583984375 349.7707328796387
282.8677673339844 292.95819091796875 386.5508346557617 292.95819091796875 386.5508346557617 349.8228225708008 282.8677673339844 349.8228225708008
283.0116271972656 293.72515869140625 386.6489791870117 293.72515869140625 386.6489791870117 350.68915939331055 283.0116271972656 350.68915939331055
283.72003173828125 292.32373046875 387.53084564208984 292.32373046875 387.53084564208984 349.6930046081543 283.72003173828125 349.6930046081543
286.14422607421875 291.9045104980469 389.16905212402344 291.9045104980469 389.16905212402344 348.8512763977051 286.14422607421875 348.8512763977051
287.85125732421875 293.7121276855469 390.4944305419922 293.7121276855469 390.4944305419922 349.1246643066406 287.85125732421875 349.1246643066406
290.6889953613281 289.39556884765625 392.46671295166016 289.39556884765625 392.46671295166016 346.9266548156738 290.6889953613281 346.9266548156738
289.99786376953125 291.3660583496094 392.2750473022461 291.3660583496094 392.2750473022461 348.3390083312988 289.99786376953125 348.3390083312988
291.0751647949219 290.1914978027344 392.75975036621094 290.1914978027344 392.75975036621094 347.6274223327637 291.0751647949219 347.6274223327637
293.43951416015625 293.8801574707031 394.0546646118164 293.8801574707031 394.0546646118164 348.2669677734375 293.43951416015625 348.2669677734375
291.06427001953125 296.3348083496094 393.1822204589844 296.3348083496094 393.1822204589844 350.8145866394043 291.06427001953125 350.8145866394043
294.74456787109375 297.397216796875 392.92362213134766 297.397216796875 392.92362213134766 351.0205879211426 294.74456787109375 351.0205879211426
295.85614013671875 298.04571533203125 392.68492126464844 298.04571533203125 392.68492126464844 351.08966064453125 295.85614013671875 351.08966064453125
295.4477844238281 296.98590087890625 392.8333740234375 296.98590087890625 392.8333740234375 351.83446502685547 295.4477844238281 351.83446502685547
298.25494384765625 293.6297607421875 394.55894470214844 293.6297607421875 394.55894470214844 348.16804122924805 298.25494384765625 348.16804122924805
300.5913391113281 294.4119873046875 396.8622512817383 294.4119873046875 396.8622512817383 347.4919662475586 300.5913391113281 347.4919662475586
304.759033203125 292.8711242675781 401.8550720214844 292.8711242675781 401.8550720214844 347.3419609069824 304.759033203125 347.3419609069824
308.249755859375 290.728759765625 404.8151092529297 290.728759765625 404.8151092529297 348.44636154174805 308.249755859375 348.44636154174805
307.9123229980469 290.30810546875 407.3196487426758 290.30810546875 407.3196487426758 348.8153381347656 307.9123229980469 348.8153381347656
309.2704772949219 287.6089782714844 408.5256805419922 287.6089782714844 408.5256805419922 346.8611755371094 309.2704772949219 346.8611755371094
307.68841552734375 289.20550537109375 407.0643768310547 289.20550537109375 407.0643768310547 349.8097915649414 307.68841552734375 349.8097915649414
308.80078125 291.4356689453125 405.77481842041016 291.4356689453125 405.77481842041016 351.35948944091797 308.80078125 351.35948944091797
308.92181396484375 294.8013610839844 405.13133239746094 294.8013610839844 405.13133239746094 354.35307693481445 308.92181396484375 354.35307693481445
307.076171875 296.136474609375 405.2955780029297 296.136474609375 405.2955780029297 352.44287872314453 307.076171875 352.44287872314453
303.91571044921875 295.89300537109375 401.36219787597656 295.89300537109375 401.36219787597656 350.8966865539551 303.91571044921875 350.8966865539551
299.17852783203125 297.62933349609375 400.8156509399414 297.62933349609375 400.8156509399414 350.98677825927734 299.17852783203125 350.98677825927734
297.39324951171875 297.88427734375 396.6165542602539 297.88427734375 396.6165542602539 350.3995475769043 297.39324951171875 350.3995475769043
299.3734436035156 295.6684875488281 395.06129455566406 295.6684875488281 395.06129455566406 349.1483345031738 299.3734436035156 349.1483345031738
296.4701232910156 294.39666748046875 393.57521057128906 294.39666748046875 393.57521057128906 347.76456451416016 296.4701232910156 347.76456451416016
295.8414001464844 295.7333068847656 397.5196075439453 295.7333068847656 397.5196075439453 348.02862548828125 295.8414001464844 348.02862548828125
300.58782958984375 295.9830017089844 398.75560760498047 295.9830017089844 398.75560760498047 348.3924560546875 300.58782958984375 348.3924560546875
302.0414123535156 295.0458068847656 397.8887405395508 295.0458068847656 397.8887405395508 348.33121490478516 302.0414123535156 348.33121490478516
296.2252197265625 293.2237854003906 393.99227142333984 293.2237854003906 393.99227142333984 348.0867614746094 296.2252197265625 348.0867614746094
291.8775329589844 293.3416748046875 391.0828323364258 293.3416748046875 391.0828323364258 348.4324417114258 291.8775329589844 348.4324417114258
289.1583557128906 294.39739990234375 385.3576965332031 294.39739990234375 385.3576965332031 350.0130195617676 289.1583557128906 350.0130195617676
286.67779541015625 294.2616271972656 383.78192138671875 294.2616271972656 383.78192138671875 350.6638870239258 286.67779541015625 350.6638870239258
284.51849365234375 293.28533935546875 383.10362243652344 293.28533935546875 383.10362243652344 350.86397552490234 284.51849365234375 350.86397552490234
283.6468200683594 292.90673828125 382.5365753173828 292.90673828125 382.5365753173828 349.99433517456055 283.6468200683594 349.99433517456055
280.09259033203125 293.65704345703125 380.63175201416016 293.65704345703125 380.63175201416016 350.0276679992676 280.09259033203125 350.0276679992676
282.3052978515625 292.421142578125 381.76062774658203 292.421142578125 381.76062774658203 348.12203216552734 282.3052978515625 348.12203216552734
275.46295166015625 290.07861328125 378.23052978515625 290.07861328125 378.23052978515625 347.922119140625 275.46295166015625 347.922119140625
273.2041320800781 289.7515869140625 376.95006561279297 289.7515869140625 376.95006561279297 348.9020004272461 273.2041320800781 348.9020004272461
269.21832275390625 290.1632385253906 372.61763763427734 290.1632385253906 372.61763763427734 351.28849029541016 269.21832275390625 351.28849029541016
270.8231201171875 287.19317626953125 373.97025299072266 287.19317626953125 373.97025299072266 349.7856025695801 270.8231201171875 349.7856025695801
271.7706604003906 291.73193359375 375.4978561401367 291.73193359375 375.4978561401367 351.13812255859375 271.7706604003906 351.13812255859375
272.9206237792969 293.24786376953125 376.2223205566406 293.24786376953125 376.2223205566406 353.6251907348633 272.9206237792969 353.6251907348633
275.51031494140625 293.61358642578125 377.4001922607422 293.61358642578125 377.4001922607422 353.7805061340332 275.51031494140625 353.7805061340332
278.580078125 292.93707275390625 377.1061019897461 292.93707275390625 377.1061019897461 353.73055267333984 278.580078125 353.73055267333984
279.1911926269531 293.8755798339844 378.21498107910156 293.8755798339844 378.21498107910156 354.75794219970703 279.1911926269531 354.75794219970703
291.20611572265625 293.7503967285156 392.3741149902344 293.7503967285156 392.3741149902344 351.4250183105469 291.20611572265625 351.4250183105469
286.7929382324219 294.7903747558594 391.0023956298828 294.7903747558594 391.0023956298828 353.4078559875488 286.7929382324219 353.4078559875488
286.90533447265625 297.8271484375 390.8645477294922 297.8271484375 390.8645477294922 354.64570236206055 286.90533447265625 354.64570236206055
286.49200439453125 298.85235595703125 389.94698333740234 298.85235595703125 389.94698333740234 356.66864013671875 286.49200439453125 356.66864013671875
284.15185546875 296.77081298828125 389.02159118652344 296.77081298828125 389.02159118652344 357.1884078979492 284.15185546875 357.1884078979492
286.74713134765625 293.8460388183594 391.3578872680664 293.8460388183594 391.3578872680664 353.5238456726074 286.74713134765625 353.5238456726074
285.836181640625 295.5129089355469 392.0704574584961 295.5129089355469 392.0704574584961 355.8440475463867 285.836181640625 355.8440475463867
283.3976135253906 290.29827880859375 394.9308319091797 290.29827880859375 394.9308319091797 353.8803825378418 283.3976135253906 353.8803825378418
285.37274169921875 289.30340576171875 397.10023498535156 289.30340576171875 397.10023498535156 351.4525451660156 285.37274169921875 351.4525451660156
289.83349609375 286.1259765625 402.5233917236328 286.1259765625 402.5233917236328 348.33695220947266 289.83349609375 348.33695220947266
295.64788818359375 287.33892822265625 412.8569793701172 287.33892822265625 412.8569793701172 350.9452133178711 295.64788818359375 350.9452133178711
296.89471435546875 276.7070007324219 408.71473693847656 276.7070007324219 408.71473693847656 341.7361831665039 296.89471435546875 341.7361831665039
305.35125732421875 283.2004089355469 416.917724609375 283.2004089355469 416.917724609375 345.4086608886719 305.35125732421875 345.4086608886719
307.8753967285156 281.78594970703125 419.5224914550781 281.78594970703125 419.5224914550781 343.41207122802734 307.8753967285156 343.41207122802734
311.3013000488281 283.36309814453125 425.3064880371094 283.36309814453125 425.3064880371094 343.3701477050781 311.3013000488281 343.3701477050781
314.6143493652344 283.165283203125 432.4425811767578 283.165283203125 432.4425811767578 343.4861946105957 314.6143493652344 343.4861946105957
319.6996765136719 281.98443603515625 437.0165557861328 281.98443603515625 437.0165557861328 342.2456474304199 319.6996765136719 342.2456474304199
324.5669860839844 283.70733642578125 443.52075958251953 283.70733642578125 443.52075958251953 342.7323989868164 324.5669860839844 342.7323989868164
327.35186767578125 281.5904846191406 448.0711669921875 281.5904846191406 448.0711669921875 342.15514373779297 327.35186767578125 342.15514373779297
332.6866149902344 280.11859130859375 452.5639343261719 280.11859130859375 452.5639343261719 341.22046661376953 332.6866149902344 341.22046661376953
337.541748046875 277.5386657714844 459.1139373779297 277.5386657714844 459.1139373779297 337.3536682128906 337.541748046875 337.3536682128906
340.5289611816406 274.2337341308594 461.8892135620117 274.2337341308594 461.8892135620117 334.5113220214844 340.5289611816406 334.5113220214844
342.48284912109375 274.84820556640625 465.3477325439453 274.84820556640625 465.3477325439453 336.38641357421875 342.48284912109375 336.38641357421875
345.7665100097656 270.6144104003906 468.37670135498047 270.6144104003906 468.37670135498047 332.0398139953613 345.7665100097656 332.0398139953613
348.2170715332031 271.1707763671875 471.1977081298828 271.1707763671875 471.1977081298828 331.9521255493164 348.2170715332031 331.9521255493164
352.7455139160156 273.8612976074219 476.6386032104492 273.8612976074219 476.6386032104492 332.74287033081055 352.7455139160156 332.74287033081055
355.1675720214844 272.95098876953125 479.4360809326172 272.95098876953125 479.4360809326172 330.77742767333984 355.1675720214844 330.77742767333984
356.9523010253906 271.59063720703125 480.63391876220703 271.59063720703125 480.63391876220703 328.9804878234863 356.9523010253906 328.9804878234863
358.25799560546875 269.6276550292969 481.64839935302734 269.6276550292969 481.64839935302734 327.1936569213867 358.25799560546875 327.1936569213867
358.61346435546875 273.1623229980469 480.45384216308594 273.1623229980469 480.45384216308594 331.5081787109375 358.61346435546875 331.5081787109375
352.0566711425781 274.38037109375 477.43859100341797 274.38037109375 477.43859100341797 333.09073638916016 352.0566711425781 333.09073638916016
352.4695129394531 274.0303955078125 476.5063934326172 274.0303955078125 476.5063934326172 331.99263763427734 352.4695129394531 331.99263763427734
351.9591369628906 275.345703125 477.1576690673828 275.345703125 477.1576690673828 333.7389335632324 351.9591369628906 333.7389335632324
355.02069091796875 276.7970275878906 478.34366607666016 276.7970275878906 478.34366607666016 335.23946380615234 355.02069091796875 335.23946380615234
353.78131103515625 273.7185974121094 478.45645904541016 273.7185974121094 478.45645904541016 331.9452209472656 353.78131103515625 331.9452209472656
355.2378845214844 278.9508361816406 480.5550079345703 278.9508361816406 480.5550079345703 338.5517883300781 355.2378845214844 338.5517883300781
353.31378173828125 279.09405517578125 479.1367416381836 279.09405517578125 479.1367416381836 336.9646987915039 353.31378173828125 336.9646987915039
354.35577392578125 279.8363342285156 478.82859802246094 279.8363342285156 478.82859802246094 338.74161529541016 354.35577392578125 338.74161529541016
355.17535400390625 282.3779602050781 477.7210693359375 282.3779602050781 477.7210693359375 341.85245513916016 355.17535400390625 341.85245513916016
356.1053161621094 280.1314392089844 476.34838104248047 280.1314392089844 476.34838104248047 340.1966972351074 356.1053161621094 340.1966972351074
357.6053466796875 280.7796936035156 475.76893615722656 280.7796936035156 475.76893615722656 343.2212600708008 357.6053466796875 343.2212600708008
359.87054443359375 282.242431640625 472.89662170410156 282.242431640625 472.89662170410156 345.82816314697266 359.87054443359375 345.82816314697266
359.5411376953125 279.0884094238281 470.61483001708984 279.0884094238281 470.61483001708984 345.9312210083008 359.5411376953125 345.9312210083008
359.1424865722656 278.4913635253906 468.51087951660156 278.4913635253906 468.51087951660156 345.7863464355469 359.1424865722656 345.7863464355469
362.34600830078125 274.9691162109375 468.89556884765625 274.9691162109375 468.89556884765625 342.8139190673828 362.34600830078125 342.8139190673828
366.1765441894531 275.36468505859375 473.4968795776367 275.36468505859375 473.4968795776367 341.8413619995117 366.1765441894531 341.8413619995117
362.14361572265625 274.64581298828125 472.08182525634766 274.64581298828125 472.08182525634766 340.7008285522461 362.14361572265625 340.7008285522461
364.306640625 274.48748779296875 474.06072998046875 274.48748779296875 474.06072998046875 338.7186737060547 364.306640625 338.7186737060547
359.79180908203125 274.0332336425781 472.3623504638672 274.0332336425781 472.3623504638672 338.9901657104492 359.79180908203125 338.9901657104492
359.39666748046875 274.98358154296875 472.54622650146484 274.98358154296875 472.54622650146484 338.89212799072266 359.39666748046875 338.89212799072266
360.43548583984375 272.6190490722656 474.19303131103516 272.6190490722656 474.19303131103516 335.8331108093262 360.43548583984375 335.8331108093262
362.474853515625 269.49835205078125 479.22347259521484 269.49835205078125 479.22347259521484 333.88514709472656 362.474853515625 333.88514709472656
360.21356201171875 273.77178955078125 481.65223693847656 273.77178955078125 481.65223693847656 337.84334564208984 360.21356201171875 337.84334564208984
361.3939208984375 273.03363037109375 484.8653335571289 273.03363037109375 484.8653335571289 337.9529266357422 361.3939208984375 337.9529266357422
368.0578918457031 269.8228454589844 489.7207717895508 269.8228454589844 489.7207717895508 336.7196502685547 368.0578918457031 336.7196502685547
376.62298583984375 268.36785888671875 494.04476165771484 268.36785888671875 494.04476165771484 335.98719787597656 376.62298583984375 335.98719787597656
388.5286560058594 271.99383544921875 499.1670379638672 271.99383544921875 499.1670379638672 338.31724548339844 388.5286560058594 338.31724548339844
387.9195861816406 269.4541931152344 501.1835021972656 269.4541931152344 501.1835021972656 337.3207092285156 387.9195861816406 337.3207092285156
390.78564453125 270.69476318359375 507.1263198852539 270.69476318359375 507.1263198852539 339.92867279052734 390.78564453125 339.92867279052734
390.9362487792969 270.9765625 510.8368835449219 270.9765625 510.8368835449219 340.1229934692383 390.9362487792969 340.1229934692383
394.0970153808594 268.2159729003906 514.6931610107422 268.2159729003906 514.6931610107422 338.03893280029297 394.0970153808594 338.03893280029297
393.5133361816406 267.4808654785156 518.1626129150391 267.4808654785156 518.1626129150391 338.4154510498047 393.5133361816406 338.4154510498047
396.7643127441406 265.648193359375 521.0082931518555 265.648193359375 521.0082931518555 336.84547424316406 396.7643127441406 336.84547424316406
396.18133544921875 265.699462890625 523.1657104492188 265.699462890625 523.1657104492188 336.53961181640625 396.18133544921875 336.53961181640625
392.5882263183594 264.5501708984375 521.8843688964844 264.5501708984375 521.8843688964844 334.8464126586914 392.5882263183594 334.8464126586914
399.58123779296875 266.2425537109375 526.6640777587891 266.2425537109375 526.6640777587891 336.4267349243164 399.58123779296875 336.4267349243164
402.2259216308594 266.287353515625 529.6306838989258 266.287353515625 529.6306838989258 335.5209503173828 402.2259216308594 335.5209503173828
411.79931640625 261.1156005859375 532.8624725341797 261.1156005859375 532.8624725341797 330.33628845214844 411.79931640625 330.33628845214844
417.01763916015625 262.4967041015625 540.2936782836914 262.4967041015625 540.2936782836914 329.7185363769531 417.01763916015625 329.7185363769531
421.5105895996094 264.41522216796875 546.8886413574219 264.41522216796875 546.8886413574219 329.5571517944336 421.5105895996094 329.5571517944336
427.0184631347656 263.6795959472656 553.306770324707 263.6795959472656 553.306770324707 328.6063537597656 427.0184631347656 328.6063537597656
432.5662536621094 261.1654357910156 563.9298706054688 261.1654357910156 563.9298706054688 326.82603454589844 432.5662536621094 326.82603454589844
439.92877197265625 261.01007080078125 569.7118377685547 261.01007080078125 569.7118377685547 325.1327667236328 439.92877197265625 325.1327667236328
444.3172302246094 262.8338317871094 576.4220886230469 262.8338317871094 576.4220886230469 325.87830352783203 444.3172302246094 325.87830352783203
454.80792236328125 260.2164001464844 579.8656845092773 260.2164001464844 579.8656845092773 323.5215873718262 454.80792236328125 323.5215873718262
457.14410400390625 263.6557922363281 581.2905120849609 263.6557922363281 581.2905120849609 323.9005432128906 457.14410400390625 323.9005432128906
464.00482177734375 265.29510498046875 582.7151870727539 265.29510498046875 582.7151870727539 324.43951416015625 464.00482177734375 324.43951416015625
462.4497985839844 266.914794921875 581.128059387207 266.914794921875 581.128059387207 325.9736442565918 462.4497985839844 325.9736442565918
472.8811950683594 265.0340881347656 585.380012512207 265.0340881347656 585.380012512207 323.9455757141113 472.8811950683594 323.9455757141113
